Time_[sec] velocity_[m/s] position_[m/s]
0 0 0.306865
0.001 4.36179e-08 0.306866
0.002 1.74471e-07 0.306866
0.003 3.9256e-07 0.306865
0.004 6.97884e-07 0.306866
0.005 1.09044e-06 0.306867
0.006 1.57023e-06 0.306868
0.007 2.13726e-06 0.306867
0.008 2.79151e-06 0.306867
0.009 3.53299e-06 0.306867
0.01 4.3617e-06 0.306868
0.011 5.27763e-06 0.306868
0.012 6.28079e-06 0.306868
0.013 7.37117e-06 0.30687
0.014 8.54876e-06 0.306869
0.015 9.81357e-06 0.30687
0.016 1.11656e-05 0.306869
0.017 1.26048e-05 0.306868
0.018 1.41313e-05 0.306869
0.019 1.57449e-05 0.306869
0.02 1.74457e-05 0.30687
0.021 1.92338e-05 0.306869
0.022 2.1109e-05 0.306868
0.023 2.30714e-05 0.306869
0.024 2.51209e-05 0.306869
0.025 2.72577e-05 0.306867
0.026 2.94816e-05 0.306869
0.027 3.17927e-05 0.306868
0.028 3.41909e-05 0.306867
0.029 3.66763e-05 0.306867
0.03 3.92488e-05 0.306867
0.031 4.19085e-05 0.306868
0.032 4.46553e-05 0.306867
0.033 4.74893e-05 0.306867
0.034 5.04103e-05 0.306866
0.035 5.34185e-05 0.306867
0.036 5.65137e-05 0.306867
0.037 5.96961e-05 0.306867
0.038 6.29656e-05 0.306867
0.039 6.63221e-05 0.306867
0.04 6.97657e-05 0.306866
0.042 7.69141e-05 0.306867
0.043 8.06188e-05 0.306866
0.044 8.44106e-05 0.306868
0.045 8.82895e-05 0.306866
0.046 9.22553e-05 0.306866
0.047 9.63082e-05 0.306867
0.048 0.000100448 0.306866
0.049 0.000104675 0.306867
0.05 0.000108989 0.306868
0.051 0.000113389 0.306866
0.052 0.000117877 0.306868
0.053 0.000122452 0.306868
0.054 0.000127114 0.306869
0.055 0.000131862 0.306869
0.056 0.000136698 0.306868
0.057 0.00014162 0.306868
0.058 0.000146629 0.306868
0.059 0.000151725 0.306869
0.06 0.000156908 0.306868
0.061 0.000162178 0.306869
0.062 0.000167535 0.306869
0.063 0.000172978 0.306869
0.064 0.000178509 0.30687
0.065 0.000184126 0.306868
0.066 0.000189829 0.306869
0.067 0.00019562 0.306869
0.068 0.000201497 0.306869
0.069 0.000207462 0.306869
0.07 0.000213512 0.306869
0.071 0.00021965 0.306869
0.072 0.000225874 0.306869
0.073 0.000232185 0.306868
0.074 0.000238583 0.306868
0.075 0.000245067 0.306868
0.076 0.000251638 0.306868
0.077 0.000258295 0.306868
0.078 0.00026504 0.306868
0.079 0.00027187 0.306867
0.08 0.000278787 0.306867
0.081 0.000285791 0.306867
0.082 0.000292882 0.306867
0.083 0.000300058 0.306867
0.084 0.000307322 0.306867
0.085 0.000314671 0.306868
0.086 0.000322108 0.306867
0.087 0.00032963 0.306866
0.088 0.00033724 0.306866
0.089 0.000344935 0.306867
0.09 0.000352717 0.306867
0.091 0.000360585 0.306867
0.092 0.00036854 0.306866
0.093 0.000376581 0.306865
0.094 0.000384708 0.306867
0.095 0.000392922 0.306867
0.096 0.000401221 0.306868
0.097 0.000409607 0.306866
0.098 0.00041808 0.306867
0.099 0.000426638 0.306867
0.1 0.000435283 0.306866
0.101 0.000444014 0.306868
0.102 0.000452831 0.306868
0.103 0.000461734 0.306868
0.104 0.000470723 0.306867
0.105 0.000479798 0.306868
0.106 0.00048896 0.306868
0.107 0.000498207 0.306868
0.108 0.00050754 0.306868
0.109 0.00051696 0.306867
0.11 0.000526465 0.306869
0.111 0.000536056 0.306869
0.112 0.000545733 0.306869
0.113 0.000555496 0.306869
0.114 0.000565345 0.306869
0.115 0.00057528 0.30687
0.116 0.0005853 0.30687
0.117 0.000595407 0.306869
0.118 0.000605599 0.30687
0.119 0.000615877 0.30687
0.12 0.00062624 0.306871
0.121 0.00063669 0.306871
0.122 0.000647224 0.306871
0.123 0.000657845 0.306871
0.124 0.000668551 0.306871
0.125 0.000679343 0.30687
0.126 0.00069022 0.306869
0.127 0.000701183 0.306869
0.128 0.000712231 0.306869
0.129 0.000723365 0.306869
0.13 0.000734585 0.306869
0.131 0.000745889 0.306869
0.132 0.000757279 0.306869
0.133 0.000768755 0.306869
0.134 0.000780316 0.306869
0.135 0.000791962 0.306868
0.136 0.000803693 0.306868
0.137 0.00081551 0.306867
0.138 0.000827412 0.306868
0.139 0.000839399 0.306867
0.14 0.000851471 0.306868
0.141 0.000863628 0.306867
0.142 0.000875871 0.306867
0.143 0.000888198 0.306867
0.144 0.000900611 0.306868
0.145 0.000913109 0.306866
0.146 0.000925691 0.306866
0.147 0.000938359 0.306868
0.148 0.000951111 0.306867
0.149 0.000963949 0.306867
0.15 0.000976871 0.306867
0.151 0.000989878 0.306867
0.152 0.00100297 0.306867
0.153 0.00101615 0.306868
0.154 0.00102941 0.306867
0.155 0.00104275 0.306868
0.156 0.00105618 0.306868
0.157 0.0010697 0.306869
0.158 0.0010833 0.306869
0.159 0.00109698 0.306869
0.16 0.00111075 0.306869
0.161 0.00112461 0.306869
0.162 0.00113854 0.30687
0.163 0.00115257 0.306869
0.164 0.00116667 0.306869
0.165 0.00118086 0.30687
0.166 0.00119514 0.30687
0.167 0.0012095 0.30687
0.168 0.00122394 0.306869
0.169 0.00123847 0.30687
0.17 0.00125308 0.306869
0.171 0.00126778 0.30687
0.172 0.00128256 0.30687
0.173 0.00129743 0.30687
0.174 0.00131238 0.306869
0.175 0.00132741 0.30687
0.176 0.00134252 0.306869
0.177 0.00135773 0.306869
0.178 0.00137301 0.306869
0.179 0.00138838 0.306869
0.18 0.00140383 0.306869
0.181 0.00141937 0.306869
0.182 0.00143499 0.306869
0.183 0.00145069 0.306869
0.184 0.00146648 0.306869
0.185 0.00148235 0.306868
0.186 0.0014983 0.306869
0.187 0.00151434 0.306869
0.188 0.00153046 0.306868
0.189 0.00154666 0.306868
0.19 0.00156295 0.306868
0.191 0.00157932 0.306869
0.192 0.00159578 0.306868
0.193 0.00161232 0.306868
0.194 0.00162894 0.306868
0.195 0.00164564 0.306867
0.196 0.00166243 0.306868
0.197 0.0016793 0.306868
0.198 0.00169626 0.306868
0.199 0.00171329 0.306869
0.2 0.00173041 0.306867
0.201 0.00174762 0.306867
0.202 0.0017649 0.306867
0.203 0.00178227 0.306868
0.204 0.00179972 0.306869
0.205 0.00181726 0.306868
0.206 0.00183487 0.306868
0.207 0.00185257 0.306868
0.208 0.00187036 0.306868
0.209 0.00188822 0.306869
0.21 0.00190617 0.306868
0.211 0.0019242 0.306868
0.212 0.00194231 0.306869
0.213 0.00196051 0.306868
0.214 0.00197879 0.306868
0.215 0.00199715 0.30687
0.216 0.00201559 0.306868
0.218 0.00205272 0.306869
0.219 0.00207141 0.306869
0.22 0.00209018 0.30687
0.221 0.00210903 0.306869
0.222 0.00212797 0.306869
0.223 0.00214699 0.306869
0.224 0.00216609 0.30687
0.225 0.00218527 0.30687
0.226 0.00220453 0.306869
0.227 0.00222387 0.30687
0.228 0.0022433 0.306868
0.229 0.00226281 0.306869
0.23 0.0022824 0.306869
0.231 0.00230207 0.306868
0.232 0.00232182 0.30687
0.233 0.00234166 0.306869
0.234 0.00236157 0.30687
0.235 0.00238157 0.306869
0.236 0.00240165 0.30687
0.237 0.00242181 0.30687
0.238 0.00244205 0.30687
0.239 0.00246237 0.306869
0.24 0.00248278 0.306868
0.241 0.00250326 0.306869
0.242 0.00252383 0.306869
0.243 0.00254447 0.306869
0.244 0.0025652 0.306868
0.245 0.00258601 0.306869
0.246 0.0026069 0.306869
0.247 0.00262787 0.306869
0.248 0.00264892 0.306869
0.249 0.00267005 0.306868
0.25 0.00269126 0.30687
0.251 0.00271256 0.306869
0.252 0.00273393 0.306869
0.253 0.00275539 0.306869
0.254 0.00277692 0.306869
0.255 0.00279853 0.30687
0.256 0.00282023 0.306869
0.257 0.00284201 0.306869
0.258 0.00286386 0.306869
0.259 0.0028858 0.306869
0.26 0.00290781 0.306869
0.261 0.00292991 0.306869
0.262 0.00295209 0.306869
0.263 0.00297434 0.306869
0.264 0.00299668 0.30687
0.265 0.00301909 0.306869
0.266 0.00304159 0.306869
0.267 0.00306416 0.306869
0.268 0.00308682 0.306869
0.269 0.00310955 0.306869
0.27 0.00313237 0.306869
0.271 0.00315526 0.306869
0.272 0.00317823 0.306869
0.273 0.00320129 0.306869
0.274 0.00322442 0.30687
0.275 0.00324763 0.306868
0.276 0.00327092 0.306869
0.277 0.00329429 0.306869
0.278 0.00331774 0.306869
0.279 0.00334127 0.306869
0.28 0.00336487 0.306869
0.281 0.00338856 0.306868
0.282 0.00341232 0.306869
0.283 0.00343617 0.306868
0.284 0.00346009 0.306868
0.285 0.00348409 0.30687
0.286 0.00350817 0.306868
0.287 0.00353233 0.30687
0.288 0.00355656 0.306868
0.289 0.00358088 0.306869
0.29 0.00360527 0.306869
0.291 0.00362974 0.30687
0.292 0.00365429 0.306869
0.293 0.00367892 0.306869
0.294 0.00370363 0.306869
0.295 0.00372841 0.306869
0.296 0.00375327 0.306869
0.297 0.00377821 0.306869
0.298 0.00380323 0.306869
0.299 0.00382833 0.306868
0.3 0.0038535 0.306869
0.301 0.00387875 0.306868
0.302 0.00390408 0.306868
0.303 0.00392949 0.306868
0.304 0.00395497 0.306868
0.305 0.00398054 0.306868
0.306 0.00400618 0.306869
0.307 0.00403189 0.306868
0.308 0.00405769 0.306869
0.309 0.00408356 0.30687
0.31 0.00410951 0.306868
0.311 0.00413553 0.306868
0.312 0.00416163 0.306869
0.313 0.00418781 0.306869
0.314 0.00421407 0.30687
0.315 0.0042404 0.30687
0.316 0.00426681 0.306869
0.317 0.0042933 0.306868
0.318 0.00431986 0.306869
0.319 0.0043465 0.30687
0.32 0.00437322 0.306869
0.321 0.00440001 0.30687
0.322 0.00442688 0.306869
0.323 0.00445383 0.30687
0.324 0.00448085 0.30687
0.325 0.00450795 0.30687
0.326 0.00453512 0.30687
0.327 0.00456237 0.30687
0.328 0.0045897 0.306869
0.329 0.0046171 0.30687
0.33 0.00464458 0.306869
0.331 0.00467213 0.306869
0.332 0.00469976 0.30687
0.333 0.00472747 0.30687
0.334 0.00475525 0.306869
0.335 0.0047831 0.306869
0.336 0.00481103 0.306869
0.337 0.00483904 0.306869
0.338 0.00486712 0.306869
0.339 0.00489528 0.306869
0.34 0.00492351 0.306869
0.341 0.00495182 0.306869
0.342 0.0049802 0.306869
0.343 0.00500866 0.306868
0.344 0.00503719 0.306869
0.345 0.0050658 0.306869
0.346 0.00509448 0.306869
0.347 0.00512324 0.306868
0.348 0.00515207 0.306868
0.349 0.00518098 0.306868
0.35 0.00520996 0.306869
0.351 0.00523901 0.306868
0.352 0.00526814 0.306869
0.353 0.00529734 0.306869
0.354 0.00532662 0.30687
0.355 0.00535597 0.30687
0.356 0.0053854 0.306869
0.357 0.0054149 0.306869
0.358 0.00544447 0.306869
0.359 0.00547412 0.306869
0.36 0.00550384 0.306869
0.361 0.00553363 0.306869
0.362 0.0055635 0.30687
0.363 0.00559344 0.306869
0.364 0.00562346 0.30687
0.365 0.00565355 0.306869
0.366 0.00568371 0.306869
0.367 0.00571394 0.306868
0.368 0.00574425 0.306869
0.369 0.00577463 0.30687
0.37 0.00580509 0.30687
0.371 0.00583561 0.306869
0.372 0.00586621 0.30687
0.373 0.00589689 0.306869
0.374 0.00592763 0.306869
0.375 0.00595845 0.306868
0.376 0.00598934 0.30687
0.377 0.0060203 0.306869
0.378 0.00605134 0.306869
0.379 0.00608245 0.306869
0.38 0.00611362 0.30687
0.381 0.00614488 0.306868
0.382 0.0061762 0.306869
0.383 0.0062076 0.306869
0.384 0.00623906 0.306869
0.385 0.0062706 0.306869
0.386 0.00630222 0.306868
0.387 0.0063339 0.306868
0.388 0.00636565 0.306868
0.389 0.00639748 0.306869
0.39 0.00642938 0.306869
0.391 0.00646135 0.306869
0.392 0.00649339 0.30687
0.393 0.0065255 0.30687
0.394 0.00655768 0.306869
0.395 0.00658994 0.30687
0.396 0.00662226 0.306869
0.397 0.00665466 0.30687
0.398 0.00668712 0.306869
0.399 0.00671966 0.30687
0.4 0.00675227 0.30687
0.401 0.00678495 0.306869
0.402 0.0068177 0.30687
0.403 0.00685052 0.30687
0.404 0.00688341 0.30687
0.405 0.00691637 0.30687
0.406 0.0069494 0.306871
0.407 0.0069825 0.30687
0.408 0.00701567 0.30687
0.409 0.00704891 0.30687
0.41 0.00708222 0.306869
0.411 0.0071156 0.306869
0.412 0.00714905 0.306869
0.413 0.00718257 0.30687
0.414 0.00721615 0.30687
0.415 0.00724981 0.306869
0.416 0.00728354 0.306869
0.417 0.00731734 0.306869
0.418 0.0073512 0.306868
0.419 0.00738514 0.30687
0.42 0.00741914 0.30687
0.421 0.00745321 0.30687
0.422 0.00748736 0.306869
0.423 0.00752157 0.30687
0.424 0.00755584 0.306869
0.425 0.00759019 0.306869
0.426 0.00762461 0.30687
0.427 0.00765909 0.306869
0.428 0.00769365 0.30687
0.429 0.00772827 0.306871
0.43 0.00776296 0.30687
0.431 0.00779771 0.30687
0.432 0.00783254 0.30687
0.433 0.00786743 0.306868
0.434 0.0079024 0.30687
0.435 0.00793742 0.306869
0.436 0.00797252 0.306869
0.437 0.00800768 0.30687
0.438 0.00804292 0.30687
0.439 0.00807822 0.30687
0.44 0.00811358 0.306869
0.441 0.00814902 0.30687
0.442 0.00818452 0.306869
0.443 0.00822008 0.306869
0.444 0.00825572 0.306869
0.445 0.00829142 0.30687
0.446 0.00832719 0.30687
0.447 0.00836302 0.306869
0.448 0.00839893 0.30687
0.449 0.00843489 0.30687
0.45 0.00847093 0.306869
0.451 0.00850703 0.306871
0.452 0.0085432 0.30687
0.453 0.00857943 0.30687
0.454 0.00861573 0.306871
0.455 0.00865209 0.30687
0.456 0.00868853 0.30687
0.457 0.00872502 0.30687
0.458 0.00876159 0.306868
0.459 0.00879821 0.306869
0.46 0.00883491 0.30687
0.461 0.00887167 0.30687
0.462 0.00890849 0.306869
0.463 0.00894538 0.306869
0.464 0.00898234 0.30687
0.465 0.00901936 0.30687
0.466 0.00905644 0.30687
0.467 0.00909359 0.30687
0.468 0.00913081 0.30687
0.469 0.00916809 0.30687
0.47 0.00920543 0.30687
0.471 0.00924284 0.306871
0.472 0.00928031 0.30687
0.473 0.00931785 0.306869
0.474 0.00935545 0.30687
0.475 0.00939312 0.30687
0.476 0.00943085 0.306869
0.477 0.00946864 0.30687
0.478 0.0095065 0.306869
0.479 0.00954442 0.306869
0.481 0.00962045 0.30687
0.482 0.00965857 0.306869
0.483 0.00969674 0.306869
0.484 0.00973498 0.306869
0.485 0.00977328 0.306869
0.486 0.00981165 0.306868
0.487 0.00985008 0.306869
0.488 0.00988857 0.306869
0.489 0.00992712 0.306869
0.49 0.00996574 0.30687
0.491 0.0100044 0.306869
0.492 0.0100432 0.30687
0.493 0.010082 0.30687
0.494 0.0101208 0.30687
0.495 0.0101598 0.306869
0.496 0.0101988 0.306869
0.497 0.0102378 0.30687
0.498 0.0102769 0.306869
0.499 0.0103161 0.30687
0.5 0.0103553 0.30687
0.501 0.0103946 0.30687
0.502 0.010434 0.306871
0.503 0.0104734 0.30687
0.504 0.0105129 0.30687
0.505 0.0105525 0.30687
0.506 0.0105921 0.306871
0.507 0.0106317 0.306872
0.508 0.0106715 0.30687
0.509 0.0107113 0.306871
0.51 0.0107511 0.30687
0.511 0.010791 0.30687
0.512 0.010831 0.30687
0.513 0.010871 0.30687
0.514 0.0109111 0.306871
0.515 0.0109513 0.306869
0.516 0.0109915 0.306869
0.517 0.0110318 0.306869
0.518 0.0110721 0.306869
0.519 0.0111125 0.30687
0.52 0.0111529 0.30687
0.521 0.0111935 0.30687
0.522 0.011234 0.306871
0.523 0.0112747 0.30687
0.524 0.0113154 0.306869
0.525 0.0113561 0.30687
0.526 0.0113969 0.306871
0.527 0.0114378 0.306869
0.528 0.0114787 0.306869
0.529 0.0115197 0.30687
0.53 0.0115608 0.306869
0.531 0.0116019 0.306869
0.532 0.011643 0.30687
0.533 0.0116842 0.306869
0.534 0.0117255 0.306869
0.535 0.0117669 0.306869
0.538 0.0118912 0.306869
0.539 0.0119328 0.306869
0.54 0.0119744 0.306869
0.541 0.0120161 0.30687
0.542 0.0120579 0.30687
0.543 0.0120997 0.30687
0.544 0.0121415 0.306869
0.545 0.0121834 0.306869
0.546 0.0122254 0.30687
0.547 0.0122674 0.306869
0.548 0.0123095 0.306869
0.549 0.0123517 0.30687
0.55 0.0123939 0.306869
0.551 0.0124361 0.30687
0.552 0.0124785 0.30687
0.553 0.0125208 0.30687
0.554 0.0125633 0.306869
0.555 0.0126057 0.306869
0.556 0.0126483 0.30687
0.557 0.0126909 0.30687
0.558 0.0127335 0.306871
0.559 0.0127762 0.30687
0.56 0.012819 0.306869
0.561 0.0128618 0.30687
0.562 0.0129047 0.30687
0.563 0.0129476 0.306869
0.564 0.0129906 0.30687
0.565 0.0130336 0.306869
0.566 0.0130767 0.30687
0.567 0.0131199 0.30687
0.568 0.0131631 0.30687
0.569 0.0132064 0.306871
0.57 0.0132497 0.306869
0.571 0.013293 0.30687
0.572 0.0133365 0.30687
0.573 0.0133799 0.30687
0.574 0.0134235 0.30687
0.575 0.0134671 0.30687
0.576 0.0135107 0.30687
0.577 0.0135544 0.30687
0.578 0.0135981 0.30687
0.579 0.0136419 0.30687
0.58 0.0136858 0.30687
0.581 0.0137297 0.30687
0.582 0.0137737 0.30687
0.583 0.0138177 0.306869
0.584 0.0138618 0.306869
0.585 0.0139059 0.30687
0.586 0.0139501 0.30687
0.587 0.0139943 0.30687
0.588 0.0140386 0.306869
0.589 0.0140829 0.30687
0.59 0.0141273 0.30687
0.591 0.0141717 0.30687
0.592 0.0142162 0.30687
0.593 0.0142607 0.306869
0.594 0.0143053 0.306869
0.595 0.01435 0.30687
0.596 0.0143947 0.30687
0.597 0.0144394 0.30687
0.598 0.0144842 0.306869
0.599 0.0145291 0.306869
0.6 0.014574 0.306869
0.601 0.0146189 0.306869
0.602 0.014664 0.306869
0.603 0.014709 0.30687
0.604 0.0147541 0.306869
0.605 0.0147993 0.30687
0.606 0.0148445 0.30687
0.607 0.0148897 0.30687
0.608 0.0149351 0.30687
0.609 0.0149804 0.30687
0.61 0.0150258 0.306869
0.611 0.0150713 0.30687
0.612 0.0151168 0.306868
0.613 0.0151624 0.30687
0.614 0.015208 0.306869
0.615 0.0152536 0.306869
0.616 0.0152994 0.30687
0.617 0.0153451 0.306869
0.618 0.0153909 0.30687
0.619 0.0154368 0.30687
0.62 0.0154827 0.30687
0.621 0.0155286 0.306869
0.622 0.0155747 0.30687
0.623 0.0156207 0.306869
0.624 0.0156668 0.306871
0.625 0.015713 0.30687
0.626 0.0157592 0.30687
0.627 0.0158054 0.30687
0.628 0.0158517 0.306871
0.629 0.0158981 0.306871
0.63 0.0159445 0.306871
0.631 0.0159909 0.30687
0.632 0.0160374 0.30687
0.633 0.0160839 0.306871
0.634 0.0161305 0.306871
0.635 0.0161771 0.30687
0.636 0.0162238 0.306871
0.638 0.0163173 0.306871
0.639 0.0163641 0.306871
0.64 0.016411 0.30687
0.641 0.0164579 0.306871
0.642 0.0165049 0.30687
0.643 0.0165519 0.306869
0.644 0.0165989 0.306871
0.645 0.016646 0.30687
0.646 0.0166932 0.30687
0.647 0.0167404 0.30687
0.648 0.0167876 0.30687
0.649 0.0168349 0.30687
0.65 0.0168822 0.306869
0.651 0.0169296 0.306869
0.652 0.016977 0.306868
0.653 0.0170245 0.306869
0.654 0.017072 0.306869
0.655 0.0171196 0.306869
0.656 0.0171672 0.306869
0.657 0.0172148 0.306869
0.658 0.0172625 0.306869
0.659 0.0173102 0.30687
0.66 0.017358 0.30687
0.661 0.0174058 0.306869
0.662 0.0174537 0.306869
0.663 0.0175016 0.306869
0.664 0.0175496 0.306869
0.665 0.0175976 0.30687
0.666 0.0176456 0.30687
0.667 0.0176937 0.30687
0.668 0.0177418 0.30687
0.669 0.01779 0.30687
0.67 0.0178382 0.30687
0.671 0.0178865 0.30687
0.672 0.0179348 0.30687
0.673 0.0179831 0.306869
0.674 0.0180315 0.306871
0.675 0.01808 0.30687
0.676 0.0181284 0.30687
0.677 0.018177 0.306869
0.678 0.0182255 0.30687
0.679 0.0182741 0.30687
0.68 0.0183228 0.30687
0.681 0.0183715 0.30687
0.682 0.0184202 0.306869
0.683 0.018469 0.306869
0.684 0.0185178 0.30687
0.685 0.0185666 0.30687
0.686 0.0186155 0.306869
0.687 0.0186645 0.306869
0.688 0.0187134 0.30687
0.689 0.0187625 0.306869
0.69 0.0188115 0.306869
0.691 0.0188606 0.306869
0.692 0.0189098 0.30687
0.693 0.0189589 0.30687
0.694 0.0190082 0.306869
0.695 0.0190574 0.306869
0.696 0.0191067 0.306869
0.697 0.0191561 0.306869
0.698 0.0192055 0.306869
0.699 0.0192549 0.306869
0.7 0.0193044 0.306869
0.701 0.0193539 0.306868
0.702 0.0194034 0.306869
0.703 0.019453 0.306869
0.704 0.0195026 0.30687
0.705 0.0195523 0.306869
0.706 0.019602 0.306868
0.707 0.0196517 0.306869
0.708 0.0197015 0.306869
0.709 0.0197513 0.306869
0.71 0.0198011 0.306869
0.711 0.019851 0.306869
0.712 0.019901 0.30687
0.713 0.0199509 0.306869
0.714 0.0200009 0.30687
0.715 0.020051 0.306869
0.716 0.0201011 0.306869
0.717 0.0201512 0.30687
0.718 0.0202013 0.30687
0.719 0.0202515 0.30687
0.72 0.0203018 0.306869
0.721 0.020352 0.306869
0.722 0.0204023 0.30687
0.723 0.0204527 0.30687
0.724 0.0205031 0.306869
0.725 0.0205535 0.30687
0.726 0.0206039 0.306869
0.727 0.0206544 0.30687
0.728 0.0207049 0.306869
0.729 0.0207555 0.30687
0.73 0.0208061 0.306869
0.731 0.0208567 0.30687
0.732 0.0209074 0.30687
0.733 0.0209581 0.306869
0.734 0.0210089 0.30687
0.735 0.0210596 0.306871
0.736 0.0211104 0.30687
0.737 0.0211613 0.30687
0.738 0.0212122 0.30687
0.739 0.0212631 0.306871
0.74 0.021314 0.306871
0.741 0.021365 0.306871
0.742 0.021416 0.306871
0.743 0.0214671 0.30687
0.744 0.0215182 0.306871
0.745 0.0215693 0.30687
0.746 0.0216205 0.30687
0.747 0.0216717 0.306869
0.748 0.0217229 0.30687
0.749 0.0217741 0.306871
0.75 0.0218254 0.30687
0.751 0.0218768 0.30687
0.752 0.0219281 0.30687
0.753 0.0219795 0.306869
0.754 0.0220309 0.30687
0.755 0.0220824 0.30687
0.756 0.0221339 0.306869
0.757 0.0221854 0.306869
0.758 0.022237 0.30687
0.759 0.0222886 0.30687
0.76 0.0223402 0.30687
0.761 0.0223918 0.30687
0.762 0.0224435 0.306869
0.763 0.0224952 0.306869
0.764 0.022547 0.306868
0.765 0.0225987 0.306869
0.766 0.0226506 0.306869
0.767 0.0227024 0.30687
0.768 0.0227543 0.30687
0.769 0.0228062 0.30687
0.77 0.0228581 0.30687
0.771 0.0229101 0.306869
0.772 0.0229621 0.30687
0.773 0.0230141 0.306869
0.774 0.0230662 0.306869
0.775 0.0231183 0.306869
0.776 0.0231704 0.30687
0.777 0.0232225 0.30687
0.778 0.0232747 0.30687
0.779 0.0233269 0.30687
0.78 0.0233791 0.30687
0.781 0.0234314 0.30687
0.782 0.0234837 0.30687
0.783 0.023536 0.30687
0.784 0.0235884 0.306869
0.785 0.0236408 0.306869
0.786 0.0236932 0.30687
0.787 0.0237456 0.306869
0.788 0.0237981 0.306869
0.789 0.0238506 0.30687
0.79 0.0239031 0.306871
0.791 0.0239557 0.306871
0.792 0.0240083 0.30687
0.793 0.0240609 0.30687
0.794 0.0241135 0.30687
0.795 0.0241662 0.306871
0.796 0.0242189 0.306871
